time	V(v)
0.000000000000000e+000	0.000000e+000
3.310719962930307e-004	2.813526e-006
4.310719962930307e-004	5.648316e-005
5.310719962930306e-004	1.052171e-003
6.310719962930307e-004	1.144660e-002
7.310719962930307e-004	5.185904e-002
8.310719962930308e-004	1.345838e-001
9.310719962930308e-004	2.476821e-001
1.031071996293031e-003	3.740228e-001
1.231071996293031e-003	6.395290e-001
1.359643424864460e-003	8.142198e-001
1.488214853435888e-003	9.860514e-001
1.616786282007317e-003	1.155024e+000
1.745357710578746e-003	1.321137e+000
1.873929139150174e-003	1.484391e+000
2.002500567721603e-003	1.644786e+000
2.131071996293031e-003	1.802321e+000
2.431071996293031e-003	2.148324e+000
2.731071996293030e-003	2.465608e+000
3.031071996293030e-003	2.750793e+000
3.331071996293029e-003	3.000991e+000
3.631071996293029e-003	3.213742e+000
3.931071996293029e-003	3.386992e+000
4.231071996293029e-003	3.519089e+000
4.531071996293030e-003	3.608782e+000
4.831071996293031e-003	3.655228e+000
5.131071996293032e-003	3.657989e+000
5.431071996293032e-003	3.617041e+000
5.731071996293033e-003	3.532766e+000
6.031071996293034e-003	3.405960e+000
6.331071996293035e-003	3.237820e+000
6.631071996293036e-003	3.029949e+000
6.931071996293036e-003	2.784349e+000
7.231071996293037e-003	2.503428e+000
7.531071996293038e-003	2.190020e+000
7.831071996293038e-003	1.847435e+000
8.131071996293036e-003	1.479608e+000
8.431071996293034e-003	1.091506e+000
8.502500567721606e-003	9.961803e-001
8.573929139150177e-003	9.008189e-001
8.645357710578748e-003	8.054219e-001
8.716786282007318e-003	7.099895e-001
8.788214853435889e-003	6.145215e-001
8.859643424864460e-003	5.190180e-001
8.931071996293031e-003	4.234790e-001
9.031071996293031e-003	2.944672e-001
9.131071996293030e-003	1.748842e-001
9.231071996293029e-003	7.846130e-002
9.331071996293029e-003	2.197760e-002
9.431071996293028e-003	2.897504e-003
9.531071996293028e-003	1.740688e-004
9.631071996293027e-003	8.780597e-006
9.731071996293026e-003	4.323769e-007
9.816786282007311e-003	-1.796322e-007
9.902500567721597e-003	-4.742503e-007
9.988214853435882e-003	-4.514772e-007
1.007392913915017e-002	-1.113131e-007
1.015964342486445e-002	5.462422e-007
1.024535771057874e-002	1.521189e-006
1.033107199629302e-002	2.813526e-006
1.043107199629302e-002	5.648316e-005
1.053107199629302e-002	1.052171e-003
1.063107199629302e-002	1.144660e-002
1.073107199629302e-002	5.185904e-002
1.083107199629302e-002	1.345838e-001
1.093107199629302e-002	2.476821e-001
1.103107199629302e-002	3.740228e-001
1.123107199629302e-002	6.395290e-001
1.135964342486445e-002	8.142198e-001
1.148821485343587e-002	9.860514e-001
1.161678628200730e-002	1.155024e+000
1.174535771057873e-002	1.321137e+000
1.187392913915016e-002	1.484391e+000
1.200250056772158e-002	1.644786e+000
1.213107199629301e-002	1.802321e+000
1.243107199629301e-002	2.148324e+000
1.273107199629301e-002	2.465608e+000
1.303107199629301e-002	2.750793e+000
1.333107199629301e-002	3.000991e+000
1.363107199629300e-002	3.213742e+000
1.393107199629300e-002	3.386992e+000
1.423107199629300e-002	3.519089e+000
1.453107199629300e-002	3.608782e+000
1.483107199629300e-002	3.655228e+000
1.513107199629299e-002	3.657989e+000
1.543107199629299e-002	3.617041e+000
1.573107199629299e-002	3.532766e+000
1.603107199629299e-002	3.405960e+000
1.633107199629299e-002	3.237820e+000
1.663107199629299e-002	3.029949e+000
1.693107199629299e-002	2.784349e+000
1.723107199629298e-002	2.503428e+000
1.753107199629298e-002	2.190020e+000
1.783107199629298e-002	1.847435e+000
1.813107199629298e-002	1.479608e+000
1.843107199629298e-002	1.091506e+000
1.850250056772155e-002	9.961803e-001
1.857392913915012e-002	9.008189e-001
1.864535771057869e-002	8.054219e-001
1.871678628200726e-002	7.099895e-001
1.878821485343583e-002	6.145215e-001
1.885964342486440e-002	5.190180e-001
1.893107199629297e-002	4.234790e-001
1.903107199629297e-002	2.944672e-001
1.913107199629297e-002	1.748842e-001
1.923107199629297e-002	7.846130e-002
1.933107199629297e-002	2.197760e-002
1.943107199629297e-002	2.897504e-003
1.953107199629297e-002	1.740688e-004
1.963107199629297e-002	8.780597e-006
1.973107199629297e-002	4.323769e-007
1.981678628200725e-002	-1.796322e-007
1.990250056772154e-002	-4.742503e-007
1.998821485343582e-002	-4.514772e-007
2.007392913915011e-002	-1.113131e-007
2.015964342486440e-002	5.462422e-007
2.024535771057868e-002	1.521189e-006
2.033107199629296e-002	2.813526e-006
2.043107199629296e-002	5.648316e-005
2.053107199629296e-002	1.052171e-003
2.063107199629296e-002	1.144660e-002
2.073107199629296e-002	5.185904e-002
2.083107199629296e-002	1.345838e-001
2.093107199629296e-002	2.476821e-001
2.103107199629296e-002	3.740228e-001
2.123107199629296e-002	6.395290e-001
2.135964342486439e-002	8.142198e-001
2.148821485343581e-002	9.860514e-001
2.161678628200724e-002	1.155024e+000
2.174535771057867e-002	1.321137e+000
2.187392913915010e-002	1.484391e+000
2.200250056772152e-002	1.644786e+000
2.213107199629295e-002	1.802321e+000
2.243107199629295e-002	2.148324e+000
2.273107199629295e-002	2.465608e+000
2.303107199629295e-002	2.750793e+000
2.333107199629295e-002	3.000991e+000
2.363107199629294e-002	3.213742e+000
2.393107199629294e-002	3.386992e+000
2.423107199629294e-002	3.519089e+000
2.453107199629294e-002	3.608782e+000
2.483107199629294e-002	3.655228e+000
2.513107199629294e-002	3.657989e+000
2.543107199629293e-002	3.617041e+000
2.573107199629293e-002	3.532766e+000
2.603107199629293e-002	3.405960e+000
2.633107199629293e-002	3.237820e+000
2.663107199629293e-002	3.029949e+000
2.693107199629292e-002	2.784349e+000
2.723107199629292e-002	2.503428e+000
2.753107199629292e-002	2.190020e+000
2.783107199629292e-002	1.847435e+000
2.813107199629292e-002	1.479608e+000
2.843107199629292e-002	1.091506e+000
2.850250056772148e-002	9.961803e-001
2.857392913915006e-002	9.008189e-001
2.864535771057863e-002	8.054219e-001
2.871678628200720e-002	7.099895e-001
2.878821485343577e-002	6.145215e-001
2.885964342486434e-002	5.190180e-001
2.893107199629291e-002	4.234790e-001
2.903107199629291e-002	2.944672e-001
2.913107199629291e-002	1.748842e-001
2.923107199629291e-002	7.846130e-002
2.933107199629291e-002	2.197760e-002
2.943107199629291e-002	2.897504e-003
2.953107199629291e-002	1.740688e-004
2.963107199629291e-002	8.780597e-006
2.973107199629291e-002	4.323769e-007
2.981678628200719e-002	-1.796322e-007
2.990250056772148e-002	-4.742503e-007
2.998821485343576e-002	-4.514772e-007
3.007392913915005e-002	-1.113131e-007
3.015964342486434e-002	5.462422e-007
3.024535771057862e-002	1.521189e-006
3.033107199629290e-002	2.813526e-006
3.043107199629290e-002	5.648316e-005
3.053107199629290e-002	1.052171e-003
3.063107199629290e-002	1.144660e-002
3.073107199629290e-002	5.185904e-002
3.083107199629290e-002	1.345838e-001
3.093107199629290e-002	2.476821e-001
3.103107199629290e-002	3.740228e-001
3.123107199629290e-002	6.395290e-001
3.135964342486433e-002	8.142198e-001
3.148821485343576e-002	9.860514e-001
3.161678628200720e-002	1.155024e+000
3.174535771057863e-002	1.321137e+000
3.187392913915006e-002	1.484391e+000
3.200250056772149e-002	1.644786e+000
3.213107199629292e-002	1.802321e+000
3.243107199629293e-002	2.148324e+000
3.273107199629294e-002	2.465608e+000
3.303107199629295e-002	2.750793e+000
3.333107199629296e-002	3.000991e+000
3.363107199629296e-002	3.213742e+000
3.393107199629297e-002	3.386992e+000
3.423107199629298e-002	3.519089e+000
3.453107199629299e-002	3.608782e+000
3.483107199629300e-002	3.655228e+000
3.513107199629301e-002	3.657989e+000
3.543107199629302e-002	3.617041e+000
3.573107199629302e-002	3.532766e+000
3.603107199629303e-002	3.405960e+000
3.633107199629304e-002	3.237820e+000
3.663107199629305e-002	3.029949e+000
3.693107199629306e-002	2.784349e+000
3.723107199629307e-002	2.503428e+000
3.753107199629308e-002	2.190020e+000
3.783107199629308e-002	1.847435e+000
3.813107199629309e-002	1.479608e+000
3.843107199629310e-002	1.091506e+000
3.850250056772168e-002	9.961803e-001
3.857392913915025e-002	9.008189e-001
3.864535771057882e-002	8.054219e-001
3.871678628200739e-002	7.099895e-001
3.878821485343597e-002	6.145215e-001
3.885964342486454e-002	5.190180e-001
3.893107199629312e-002	4.234790e-001
3.903107199629312e-002	2.944672e-001
3.913107199629312e-002	1.748842e-001
3.923107199629312e-002	7.846130e-002
3.933107199629313e-002	2.197760e-002
3.943107199629313e-002	2.897504e-003
3.953107199629313e-002	1.740688e-004
3.963107199629314e-002	8.780597e-006
3.973107199629314e-002	4.323769e-007
3.993107199629314e-002	8.160178e-010
4.000000000000000e-002	-4.208783e-017
